idcliente,dtnascimento
1,1988-02-03
2,1992-11-08
3,1992-12-31
5,1995-04-28
8,1954-09-09
14,1966-03-25
15,1982-03-28
16,1961-02-17
17,1964-10-02
19,1981-08-17
20,1980-11-11
21,1954-06-02
24,1980-05-30
25,1996-09-14
27,1953-12-26
30,1967-06-07
31,1983-05-14
32,1966-01-04
33,1991-11-27
35,2001-05-02
36,1981-02-21
38,1964-03-14
39,1997-08-31
40,1969-11-29
42,1950-11-01
46,1971-07-01
47,2008-11-10
49,1954-10-29
51,2007-01-21
52,1995-07-16
53,1950-06-10
54,1988-11-17
56,1968-07-23
58,1990-07-26
60,2001-05-13
62,2002-09-16
63,1972-03-09
65,1987-09-12
67,1960-09-28
68,2009-02-07
72,2004-07-20
74,1995-04-09
75,1951-11-10
77,1954-01-20
78,1997-02-11
79,1987-03-02
81,1956-01-27
83,1960-05-18
84,1999-10-29
89,1995-11-19
91,1953-11-24
96,2007-10-02
97,1969-09-29
100,1968-05-12
101,1957-03-07
103,1997-04-22
104,1997-02-07
105,1969-05-24
106,1970-05-27
107,1962-04-19
108,1999-12-06
112,1955-09-24
114,2004-05-17
115,1986-09-21
116,1963-12-12
117,1956-02-21
120,1986-08-29
124,1998-01-20
126,1967-08-23
127,1972-01-12
131,1974-05-04
133,1955-02-19
134,2009-03-28
136,1962-03-17
138,1954-06-19
140,2009-08-15
141,1955-11-24
142,1993-03-03
144,1979-03-23
145,1968-09-26
147,1967-11-08
148,1978-10-03
149,1953-12-24
152,1992-08-17
153,1956-09-29
154,1993-11-09
156,2007-11-07
160,2004-06-16
162,1974-08-17
168,1968-08-07
171,1965-08-11
172,1957-08-26
173,1988-10-08
176,2000-01-27
177,1959-01-08
178,2004-04-23
180,2009-08-29
181,1959-03-06
182,1977-07-04
185,1954-12-21
186,1996-10-18
187,1978-02-04
188,1957-10-23
190,1965-04-25
191,1960-08-12
192,1981-08-10
195,1995-04-19
196,1972-11-10
198,1955-07-29
200,1984-06-14
202,2006-02-18
203,2001-07-18
208,1978-05-02
210,1996-07-26
215,1994-10-10
217,1969-03-21
218,1969-09-05
219,2004-07-22
224,1998-01-11
225,2002-06-10
227,1992-05-30
228,1984-07-16
230,1960-03-02
231,1985-06-12
232,1986-10-30
233,1957-10-24
236,1989-01-12
237,1991-04-26
238,1952-12-26
239,1965-11-11
241,1983-04-13
242,1952-09-06
243,1999-05-22
245,2004-10-01
246,2007-04-26
249,1956-11-26
